Be Density=1.848 Thickness=500. microns
 Photon Energy (eV), Transmission
    500.00      0.00000    
    559.00      0.00000    
    618.00      0.00000    
    677.00      0.00000    
    736.00      0.00000    
    795.00      0.00000    
    854.00      0.44767E-38
    913.00      0.31509E-31
    972.00      0.67702E-26
    1031.0      0.11077E-21
    1090.0      0.25064E-18
    1149.0      0.12662E-15
    1208.0      0.20214E-13
    1267.0      0.13163E-11
    1326.0      0.42256E-10
    1385.0      0.77305E-09
    1444.0      0.89938E-08
    1503.0      0.72364E-07
    1562.0      0.44233E-06
    1621.0      0.21089E-05
    1680.0      0.81175E-05
    1739.0      0.26135E-04
    1798.0      0.72417E-04
    1857.0      0.17675E-03
    1916.0      0.38737E-03
    1975.0      0.77436E-03
    2034.0      0.14331E-02
    2093.0      0.24997E-02
    2152.0      0.41025E-02
    2211.0      0.63868E-02
    2270.0      0.94960E-02
    2329.0      0.13563E-01
    2388.0      0.18701E-01
    2447.0      0.24996E-01
    2506.0      0.32509E-01
    2565.0      0.41267E-01
    2624.0      0.51268E-01
    2683.0      0.62486E-01
    2742.0      0.74867E-01
    2801.0      0.88338E-01
    2860.0      0.10281    
    2919.0      0.11819    
    2978.0      0.13436    
    3037.0      0.15130    
    3096.0      0.16908    
    3155.0      0.18736    
    3214.0      0.20603    
    3273.0      0.22497    
    3332.0      0.24409    
    3391.0      0.26331    
    3450.0      0.28254    
    3509.0      0.30170    
    3568.0      0.32074    
    3627.0      0.33958    
    3686.0      0.35819    
    3745.0      0.37652    
    3804.0      0.39454    
    3863.0      0.41220    
    3922.0      0.42950    
    3981.0      0.44640    
    4040.0      0.46290    
    4099.0      0.47898    
    4158.0      0.49480    
    4217.0      0.51020    
    4276.0      0.52515    
    4335.0      0.53966    
    4394.0      0.55373    
    4453.0      0.56736    
    4512.0      0.58056    
    4571.0      0.59334    
    4630.0      0.60570    
    4689.0      0.61765    
    4748.0      0.62920    
    4807.0      0.64036    
    4866.0      0.65115    
    4925.0      0.66156    
    4984.0      0.67162    
    5043.0      0.68133    
    5102.0      0.69070    
    5161.0      0.69975    
    5220.0      0.70848    
    5279.0      0.71698    
    5338.0      0.72519    
    5397.0      0.73310    
    5456.0      0.74074    
    5515.0      0.74810    
    5574.0      0.75521    
    5633.0      0.76207    
    5692.0      0.76869    
    5751.0      0.77507    
    5810.0      0.78124    
    5869.0      0.78719    
    5928.0      0.79293    
    5987.0      0.79848    
    6046.0      0.80383    
    6105.0      0.80900    
    6164.0      0.81400    
    6223.0      0.81882    
    6282.0      0.82348    
    6341.0      0.82799    
    6400.0      0.83237    
    6459.0      0.83660    
    6518.0      0.84069    
    6577.0      0.84465    
    6636.0      0.84847    
    6695.0      0.85217    
    6754.0      0.85574    
    6813.0      0.85920    
    6872.0      0.86254    
    6931.0      0.86578    
    6990.0      0.86891    
    7049.0      0.87194    
    7108.0      0.87488    
    7167.0      0.87772    
    7226.0      0.88047    
    7285.0      0.88313    
    7344.0      0.88571    
    7403.0      0.88821    
    7462.0      0.89063    
    7521.0      0.89298    
    7580.0      0.89526    
    7639.0      0.89746    
    7698.0      0.89960    
    7757.0      0.90168    
    7816.0      0.90369    
    7875.0      0.90564    
    7934.0      0.90754    
    7993.0      0.90938    
    8052.0      0.91116    
    8111.0      0.91290    
    8170.0      0.91458    
    8229.0      0.91622    
    8288.0      0.91781    
    8347.0      0.91936    
    8406.0      0.92087    
    8465.0      0.92234    
    8524.0      0.92377    
    8583.0      0.92515    
    8642.0      0.92650    
    8701.0      0.92781    
    8760.0      0.92908    
    8819.0      0.93032    
    8878.0      0.93153    
    8937.0      0.93270    
    8996.0      0.93384    
    9055.0      0.93495    
    9114.0      0.93603    
    9173.0      0.93708    
    9232.0      0.93810    
    9291.0      0.93910    
    9350.0      0.94007    
    9409.0      0.94101    
    9468.0      0.94193    
    9527.0      0.94282    
    9586.0      0.94370    
    9645.0      0.94454    
    9704.0      0.94537    
    9763.0      0.94618    
    9822.0      0.94697    
    9881.0      0.94773    
    9940.0      0.94848    
    9999.0      0.94921    
    10058.      0.94992    
    10117.      0.95062    
    10176.      0.95130    
    10235.      0.95197    
    10294.      0.95262    
    10353.      0.95325    
    10412.      0.95387    
    10471.      0.95447    
    10530.      0.95506    
    10589.      0.95564    
    10648.      0.95620    
    10707.      0.95675    
    10766.      0.95728    
    10825.      0.95780    
    10884.      0.95832    
    10943.      0.95881    
    11002.      0.95930    
    11061.      0.95978    
    11120.      0.96024    
    11179.      0.96070    
    11238.      0.96114    
    11297.      0.96158    
    11356.      0.96200    
    11415.      0.96242    
    11474.      0.96283    
    11533.      0.96322    
    11592.      0.96361    
    11651.      0.96399    
    11710.      0.96436    
    11769.      0.96473    
    11828.      0.96508    
    11887.      0.96543    
    11946.      0.96577    
    12005.      0.96611    
    12064.      0.96643    
    12123.      0.96675    
    12182.      0.96706    
    12241.      0.96737    
    12300.      0.96767    
    12359.      0.96796    
    12418.      0.96825    
    12477.      0.96853    
    12536.      0.96881    
    12595.      0.96908    
    12654.      0.96935    
    12713.      0.96961    
    12772.      0.96987    
    12831.      0.97012    
    12890.      0.97036    
    12949.      0.97060    
    13008.      0.97084    
    13067.      0.97107    
    13126.      0.97130    
    13185.      0.97152    
    13244.      0.97174    
    13303.      0.97195    
    13362.      0.97216    
    13421.      0.97236    
    13480.      0.97256    
    13539.      0.97276    
    13598.      0.97295    
    13657.      0.97314    
    13716.      0.97333    
    13775.      0.97351    
    13834.      0.97369    
    13893.      0.97386    
    13952.      0.97403    
    14011.      0.97420    
    14070.      0.97436    
    14129.      0.97453    
    14188.      0.97468    
    14247.      0.97484    
    14306.      0.97499    
    14365.      0.97514    
    14424.      0.97529    
    14483.      0.97543    
    14542.      0.97558    
    14601.      0.97572    
    14660.      0.97585    
    14719.      0.97599    
    14778.      0.97612    
    14837.      0.97625    
    14896.      0.97637    
    14955.      0.97650    
    15014.      0.97662    
    15073.      0.97675    
    15132.      0.97687    
    15191.      0.97699    
    15250.      0.97711    
    15309.      0.97723    
    15368.      0.97734    
    15427.      0.97746    
    15486.      0.97757    
    15545.      0.97768    
    15604.      0.97778    
    15663.      0.97789    
    15722.      0.97799    
    15781.      0.97810    
    15840.      0.97820    
    15899.      0.97829    
    15958.      0.97839    
    16017.      0.97849    
    16076.      0.97858    
    16135.      0.97867    
    16194.      0.97876    
    16253.      0.97885    
    16312.      0.97894    
    16371.      0.97903    
    16430.      0.97911    
    16489.      0.97920    
    16548.      0.97928    
    16607.      0.97936    
    16666.      0.97944    
    16725.      0.97952    
    16784.      0.97960    
    16843.      0.97968    
    16902.      0.97975    
    16961.      0.97982    
    17020.      0.97990    
    17079.      0.97997    
    17138.      0.98004    
    17197.      0.98011    
    17256.      0.98018    
    17315.      0.98024    
    17374.      0.98031    
    17433.      0.98037    
    17492.      0.98044    
    17551.      0.98050    
    17610.      0.98056    
    17669.      0.98062    
    17728.      0.98068    
    17787.      0.98074    
    17846.      0.98080    
    17905.      0.98086    
    17964.      0.98092    
    18023.      0.98097    
    18082.      0.98103    
    18141.      0.98108    
    18200.      0.98113    
    18259.      0.98118    
    18318.      0.98124    
    18377.      0.98129    
    18436.      0.98134    
    18495.      0.98139    
    18554.      0.98143    
    18613.      0.98148    
    18672.      0.98153    
    18731.      0.98157    
    18790.      0.98162    
    18849.      0.98167    
    18908.      0.98171    
    18967.      0.98175    
    19026.      0.98180    
    19085.      0.98184    
    19144.      0.98188    
    19203.      0.98192    
    19262.      0.98196    
    19321.      0.98200    
    19380.      0.98204    
    19439.      0.98208    
    19498.      0.98212    
    19557.      0.98215    
    19616.      0.98219    
    19675.      0.98223    
    19734.      0.98226    
    19793.      0.98230    
    19852.      0.98233    
    19911.      0.98237    
    19970.      0.98240    
    20029.      0.98244    
    20088.      0.98247    
    20147.      0.98251    
    20206.      0.98255    
    20265.      0.98258    
    20324.      0.98262    
    20383.      0.98265    
    20442.      0.98269    
    20501.      0.98272    
    20560.      0.98275    
    20619.      0.98279    
    20678.      0.98282    
    20737.      0.98285    
    20796.      0.98288    
    20855.      0.98291    
    20914.      0.98294    
    20973.      0.98297    
    21032.      0.98300    
    21091.      0.98303    
    21150.      0.98306    
    21209.      0.98309    
    21268.      0.98312    
    21327.      0.98315    
    21386.      0.98318    
    21445.      0.98320    
    21504.      0.98323    
    21563.      0.98326    
    21622.      0.98328    
    21681.      0.98331    
    21740.      0.98334    
    21799.      0.98336    
    21858.      0.98339    
    21917.      0.98341    
    21976.      0.98344    
    22035.      0.98346    
    22094.      0.98349    
    22153.      0.98351    
    22212.      0.98353    
    22271.      0.98356    
    22330.      0.98358    
    22389.      0.98360    
    22448.      0.98362    
    22507.      0.98365    
    22566.      0.98367    
    22625.      0.98369    
    22684.      0.98371    
    22743.      0.98373    
    22802.      0.98375    
    22861.      0.98377    
    22920.      0.98379    
    22979.      0.98381    
    23038.      0.98383    
    23097.      0.98385    
    23156.      0.98387    
    23215.      0.98389    
    23274.      0.98391    
    23333.      0.98393    
    23392.      0.98395    
    23451.      0.98396    
    23510.      0.98398    
    23569.      0.98400    
    23628.      0.98402    
    23687.      0.98404    
    23746.      0.98405    
    23805.      0.98407    
    23864.      0.98409    
    23923.      0.98410    
    23982.      0.98412    
    24041.      0.98414    
    24100.      0.98415    
    24159.      0.98417    
    24218.      0.98418    
    24277.      0.98420    
    24336.      0.98421    
    24395.      0.98423    
    24454.      0.98424    
    24513.      0.98426    
    24572.      0.98427    
    24631.      0.98429    
    24690.      0.98430    
    24749.      0.98432    
    24808.      0.98433    
    24867.      0.98434    
    24926.      0.98436    
    24985.      0.98437    
    25044.      0.98439    
    25103.      0.98440    
    25162.      0.98441    
    25221.      0.98442    
    25280.      0.98444    
    25339.      0.98445    
    25398.      0.98446    
    25457.      0.98448    
    25516.      0.98449    
    25575.      0.98450    
    25634.      0.98451    
    25693.      0.98452    
    25752.      0.98454    
    25811.      0.98455    
    25870.      0.98456    
    25929.      0.98457    
    25988.      0.98458    
    26047.      0.98459    
    26106.      0.98460    
    26165.      0.98461    
    26224.      0.98462    
    26283.      0.98464    
    26342.      0.98465    
    26401.      0.98466    
    26460.      0.98467    
    26519.      0.98468    
    26578.      0.98469    
    26637.      0.98470    
    26696.      0.98471    
    26755.      0.98472    
    26814.      0.98473    
    26873.      0.98474    
    26932.      0.98474    
    26991.      0.98475    
    27050.      0.98476    
    27109.      0.98477    
    27168.      0.98478    
    27227.      0.98479    
    27286.      0.98480    
    27345.      0.98481    
    27404.      0.98482    
    27463.      0.98483    
    27522.      0.98483    
    27581.      0.98484    
    27640.      0.98485    
    27699.      0.98486    
    27758.      0.98487    
    27817.      0.98488    
    27876.      0.98488    
    27935.      0.98489    
    27994.      0.98490    
    28053.      0.98491    
    28112.      0.98491    
    28171.      0.98492    
    28230.      0.98493    
    28289.      0.98494    
    28348.      0.98494    
    28407.      0.98495    
    28466.      0.98496    
    28525.      0.98497    
    28584.      0.98497    
    28643.      0.98498    
    28702.      0.98499    
    28761.      0.98499    
    28820.      0.98500    
    28879.      0.98501    
    28938.      0.98501    
    28997.      0.98502    
    29056.      0.98503    
    29115.      0.98503    
    29174.      0.98504    
    29233.      0.98505    
    29292.      0.98505    
    29351.      0.98506    
    29410.      0.98506    
    29469.      0.98507    
    29528.      0.98508    
    29587.      0.98508    
    29646.      0.98509    
    29705.      0.98509    
    29764.      0.98510    
    29823.      0.98510    
    29882.      0.98511    
    29941.      0.98512    
    30000.      0.98512    